DI water
8/19/2016 11:33:25 AM
Wavelength (nm),Absorbance
600.00,0.000007
599.50,-0.000418
599.00,0.000147
598.50,-0.000369
598.00,-0.000284
597.50,-0.000354
597.00,-0.000533
596.50,0.000003
596.00,-0.000196
595.50,-0.000502
595.00,0.000072
594.50,0.000014
594.00,-0.000238
593.50,-0.000239
593.00,-0.000630
592.50,-0.000279
592.00,-0.000164
591.50,0.000349
591.00,-0.000666
590.50,0.000466
590.00,-0.000064
589.50,0.000408
589.00,-0.000330
588.50,0.000220
588.00,-0.000399
587.50,-0.000484
587.00,-0.000448
586.50,0.000342
586.00,0.000217
585.50,-0.000023
585.00,0.000195
584.50,0.000556
584.00,-0.000017
583.50,0.000037
583.00,-0.000251
582.50,0.000484
582.00,0.000578
581.50,-0.000041
581.00,0.000279
580.50,-0.000071
580.00,0.000016
579.50,-0.000198
579.00,-0.000342
578.50,-0.000133
578.00,0.000015
577.50,-0.000259
577.00,0.000031
576.50,-0.000274
576.00,0.000295
575.50,0.000295
575.00,-0.000123
574.50,-0.000537
574.00,-0.000313
573.50,0.000165
573.00,0.000516
572.50,-0.000174
572.00,0.000355
571.50,-0.000076
571.00,0.000189
570.50,0.000080
570.00,0.000181
569.50,0.000106
569.00,-0.000157
568.50,-0.000073
568.00,-0.000166
567.50,0.000081
567.00,0.000090
566.50,-0.000251
566.00,0.000291
565.50,-0.000079
565.00,-0.000045
564.50,0.000048
564.00,-0.000018
563.50,-0.000020
563.00,-0.000067
562.50,-0.000099
562.00,0.000058
561.50,-0.000334
561.00,-0.000356
560.50,-0.000107
560.00,-0.000492
559.50,-0.000575
559.00,-0.000014
558.50,0.000193
558.00,0.000166
557.50,0.000034
557.00,0.000212
556.50,0.000023
556.00,0.000018
555.50,0.000003
555.00,0.000396
554.50,-0.000035
554.00,-0.000262
553.50,0.000054
553.00,0.000125
552.50,0.000046
552.00,-0.000041
551.50,0.000153
551.00,0.000142
550.50,-0.000332
550.00,-0.000198
549.50,-0.000355
549.00,-0.000108
548.50,-0.000342
548.00,-0.000275
547.50,-0.000047
547.00,-0.000280
546.50,-0.000046
546.00,-0.000038
545.50,-0.000075
545.00,0.000196
544.50,0.000151
544.00,-0.000127
543.50,0.000004
543.00,-0.000024
542.50,0.000072
542.00,-0.000083
541.50,0.000183
541.00,0.000140
540.50,0.000010
540.00,0.000163
539.50,-0.000428
539.00,-0.000441
538.50,0.000044
538.00,-0.000011
537.50,0.000127
537.00,0.000181
536.50,-0.000050
536.00,-0.000214
535.50,-0.000063
535.00,0.000084
534.50,-0.000224
534.00,0.000107
533.50,0.000131
533.00,0.000121
532.50,0.000019
532.00,0.000035
531.50,-0.000188
531.00,0.000176
530.50,0.000289
530.00,0.000199
529.50,-0.000107
529.00,0.000009
528.50,0.000036
528.00,0.000139
527.50,0.000048
527.00,0.000047
526.50,0.000046
526.00,0.000034
525.50,0.000067
525.00,0.000210
524.50,-0.000038
524.00,0.000149
523.50,0.000046
523.00,0.000081
522.50,-0.000262
522.00,0.000098
521.50,0.000096
521.00,0.000044
520.50,-0.000084
520.00,0.000116
519.50,-0.000201
519.00,0.000110
518.50,-0.000156
518.00,-0.000168
517.50,0.000462
517.00,0.000181
516.50,0.000422
516.00,0.000255
515.50,0.000060
515.00,0.000235
514.50,-0.000123
514.00,-0.000028
513.50,0.000109
513.00,0.000168
512.50,-0.000234
512.00,0.000380
511.50,0.000571
511.00,-0.000296
510.50,0.000619
510.00,0.000414
509.50,-0.000082
509.00,-0.000251
508.50,-0.000057
508.00,-0.000025
507.50,-0.000068
507.00,0.000441
506.50,-0.000103
506.00,0.000241
505.50,0.000265
505.00,-0.000283
504.50,-0.000108
504.00,0.000249
503.50,0.000145
503.00,-0.000184
502.50,-0.000532
502.00,0.000013
501.50,0.000519
501.00,-0.000298
500.50,-0.000241
500.00,0.000236
499.50,0.000352
499.00,0.000133
498.50,-0.000004
498.00,-0.000086
497.50,0.000014
497.00,0.000293
496.50,0.000283
496.00,0.000115
495.50,-0.000199
495.00,0.000009
494.50,-0.000123
494.00,0.000110
493.50,0.000350
493.00,0.000159
492.50,0.000038
492.00,0.000209
491.50,-0.000039
491.00,0.000314
490.50,-0.000042
490.00,0.000108
489.50,0.000173
489.00,0.000065
488.50,-0.000042
488.00,0.000117
487.50,0.000196
487.00,0.000101
486.50,0.000171
486.00,0.000130
485.50,0.000205
485.00,0.000112
484.50,0.000180
484.00,0.000058
483.50,0.000174
483.00,0.000032
482.50,0.000152
482.00,0.000266
481.50,0.000257
481.00,0.000006
480.50,0.000061
480.00,0.000143
479.50,-0.000031
479.00,0.000002
478.50,0.000039
478.00,0.000026
477.50,0.000159
477.00,0.000119
476.50,-0.000168
476.00,0.000141
475.50,-0.000106
475.00,0.000019
474.50,0.000067
474.00,0.000278
473.50,-0.000101
473.00,0.000037
472.50,0.000123
472.00,0.000171
471.50,0.000196
471.00,0.000279
470.50,-0.000032
470.00,0.000197
469.50,0.000239
469.00,0.000306
468.50,-0.000066
468.00,0.000193
467.50,0.000102
467.00,-0.000240
466.50,0.000214
466.00,0.000148
465.50,0.000207
465.00,0.000039
464.50,0.000151
464.00,0.000051
463.50,0.000085
463.00,0.000352
462.50,-0.000071
462.00,0.000271
461.50,-0.000009
461.00,0.000053
460.50,0.000102
460.00,0.000149
459.50,0.000069
459.00,0.000173
458.50,0.000027
458.00,0.000116
457.50,0.000023
457.00,0.000106
456.50,-0.000021
456.00,0.000075
455.50,-0.000124
455.00,0.000016
454.50,0.000230
454.00,0.000132
453.50,0.000179
453.00,0.000115
452.50,-0.000193
452.00,0.000327
451.50,-0.000055
451.00,0.000229
450.50,0.000174
450.00,0.000070
449.50,0.000103
449.00,0.000113
448.50,0.000060
448.00,0.000045
447.50,0.000048
447.00,0.000106
446.50,0.000208
446.00,0.000309
445.50,-0.000127
445.00,0.000049
444.50,0.000142
444.00,-0.000021
443.50,0.000247
443.00,0.000179
442.50,0.000182
442.00,-0.000099
441.50,0.000299
441.00,0.000197
440.50,-0.000137
440.00,-0.000067
439.50,-0.000080
439.00,-0.000044
438.50,0.000108
438.00,0.000390
437.50,-0.000004
437.00,-0.000004
436.50,0.000166
436.00,-0.000016
435.50,0.000227
435.00,-0.000007
434.50,0.000216
434.00,0.000062
433.50,0.000114
433.00,0.000123
432.50,0.000004
432.00,0.000093
431.50,0.000099
431.00,-0.000013
430.50,-0.000054
430.00,0.000031
429.50,0.000030
429.00,-0.000171
428.50,0.000153
428.00,0.000013
427.50,0.000398
427.00,0.000150
426.50,0.000121
426.00,-0.000142
425.50,0.000003
425.00,0.000063
424.50,0.000114
424.00,0.000199
423.50,-0.000076
423.00,0.000052
422.50,-0.000070
422.00,-0.000009
421.50,0.000067
421.00,-0.000034
420.50,0.000064
420.00,0.000318
419.50,0.000187
419.00,0.000028
418.50,-0.000156
418.00,-0.000235
417.50,-0.000227
417.00,0.000301
416.50,0.000139
416.00,0.000069
415.50,-0.000052
415.00,0.000075
414.50,0.000003
414.00,-0.000254
413.50,0.000020
413.00,-0.000078
412.50,-0.000320
412.00,-0.000066
411.50,-0.000158
411.00,0.000202
410.50,0.000093
410.00,-0.000101
409.50,0.000015
409.00,-0.000035
408.50,-0.000238
408.00,-0.000217
407.50,0.000175
407.00,-0.000491
406.50,0.000222
406.00,0.000387
405.50,0.000154
405.00,0.000158
404.50,-0.000414
404.00,-0.000367
403.50,-0.000306
403.00,-0.000071
402.50,-0.000073
402.00,0.000153
401.50,-0.000118
401.00,-0.000079
400.50,0.000149
400.00,-0.000118
399.50,0.000217
399.00,-0.000212
398.50,0.000074
398.00,-0.000165
397.50,-0.000185
397.00,-0.000375
396.50,-0.000144
396.00,-0.000035
395.50,0.000330
395.00,-0.000203
394.50,-0.000048
394.00,-0.000008
393.50,0.000058
393.00,-0.000130
392.50,-0.000309
392.00,0.000086
391.50,0.000128
391.00,-0.000095
390.50,-0.000465
390.00,0.000113
389.50,0.000317
389.00,0.000157
388.50,0.000123
388.00,-0.000100
387.50,0.000048
387.00,0.000105
386.50,0.000362
386.00,-0.000387
385.50,0.000065
385.00,-0.000257
384.50,0.000138
384.00,0.000332
383.50,-0.000656
383.00,-0.000169
382.50,-0.000062
382.00,0.000189
381.50,0.000062
381.00,0.000015
380.50,-0.000139
380.00,-0.000248
379.50,0.000241
379.00,-0.000291
378.50,0.000121
378.00,-0.000053
377.50,0.000269
377.00,0.000059
376.50,0.000058
376.00,0.000031
375.50,-0.000129
375.00,-0.000383
374.50,-0.000658
374.00,-0.000142
373.50,-0.000123
373.00,-0.000091
372.50,-0.000324
372.00,-0.000075
371.50,-0.000204
371.00,0.000013
370.50,-0.000096
370.00,0.000210
369.50,-0.000347
369.00,0.000003
368.50,-0.000228
368.00,0.000244
367.50,-0.000140
367.00,0.000832
366.50,-0.000318
366.00,0.000251
365.50,0.000005
365.00,-0.000480
364.50,0.000148
364.00,0.000275
363.50,0.000151
363.00,-0.000262
362.50,0.000076
362.00,-0.000061
361.50,0.000108
361.00,-0.000252
360.50,0.000085
360.00,-0.000044
359.50,0.000293
359.00,-0.000043
358.50,-0.000354
358.00,0.000090
357.50,0.000164
357.00,-0.000096
356.50,0.000224
356.00,0.000145
355.50,0.000205
355.00,-0.000094
354.50,-0.000455
354.00,-0.000285
353.50,-0.000041
353.00,0.000741
352.50,-0.000044
352.00,-0.000361
351.50,0.000161
351.00,-0.000127
350.50,0.000310
350.00,0.000522
349.50,0.000463
349.00,0.000055
348.50,-0.000620
348.00,0.000277
347.50,0.000235
347.00,-0.000442
346.50,-0.000162
346.00,0.000198
345.50,0.000033
345.00,-0.000557
344.50,0.000065
344.00,-0.000350
343.50,-0.000412
343.00,-0.000093
342.50,0.000004
342.00,-0.001161
341.50,-0.000031
341.00,-0.000150
340.50,0.000119
340.00,0.000067
339.50,-0.000143
339.00,-0.000302
338.50,0.000256
338.00,0.000289
337.50,-0.000060
337.00,-0.000453
336.50,-0.000333
336.00,-0.000070
335.50,0.000839
335.00,0.000665
334.50,-0.000072
334.00,-0.000245
333.50,-0.000469
333.00,0.000281
332.50,0.000155
332.00,0.000131
331.50,0.000033
331.00,-0.000063
330.50,0.000419
330.00,0.000345
329.50,0.000168
329.00,-0.000351
328.50,0.000071
328.00,0.000352
327.50,-0.000245
327.00,0.000040
326.50,0.000210
326.00,0.000085
325.50,0.000127
325.00,0.000010
324.50,0.000101
324.00,-0.000036
323.50,-0.000029
323.00,-0.000032
322.50,0.000088
322.00,0.000190
321.50,0.000202
321.00,-0.000123
320.50,0.000103
320.00,-0.000220
319.50,0.000158
319.00,-0.000109
318.50,0.000005
318.00,-0.000066
317.50,-0.000056
317.00,0.000187
316.50,-0.000062
316.00,0.000183
315.50,-0.000236
315.00,0.000218
314.50,-0.000026
314.00,0.000133
313.50,-0.000278
313.00,-0.000123
312.50,-0.000077
312.00,0.000139
311.50,0.000114
311.00,0.000281
310.50,-0.000099
310.00,-0.000189
309.50,0.000200
309.00,0.000082
308.50,-0.000148
308.00,0.000109
307.50,-0.000127
307.00,-0.000040
306.50,-0.000021
306.00,0.000097
305.50,-0.000017
305.00,0.000013
304.50,-0.000205
304.00,0.000092
303.50,0.000154
303.00,-0.000113
302.50,-0.000046
302.00,-0.000204
301.50,-0.000072
301.00,-0.000122
300.50,0.000210
300.00,-0.000095
299.50,-0.000013
299.00,-0.000004
298.50,0.000200
298.00,-0.000183
297.50,-0.000129
297.00,-0.000024
296.50,-0.000305
296.00,0.000219
295.50,0.000031
295.00,-0.000023
294.50,0.000019
294.00,-0.000040
293.50,0.000136
293.00,0.000291
292.50,-0.000218
292.00,-0.000110
291.50,-0.000133
291.00,-0.000229
290.50,-0.000061
290.00,-0.000089
289.50,-0.000346
289.00,-0.000131
288.50,0.000018
288.00,-0.000008
287.50,-0.000052
287.00,-0.000010
286.50,0.000221
286.00,-0.000105
285.50,-0.000060
285.00,0.000070
284.50,-0.000035
284.00,-0.000165
283.50,0.000244
283.00,0.000229
282.50,0.000105
282.00,-0.000182
281.50,-0.000277
281.00,0.000115
280.50,0.000069
280.00,-0.000413
279.50,-0.000051
279.00,0.000010
278.50,-0.000154
278.00,-0.000104
277.50,-0.000196
277.00,-0.000046
276.50,-0.000307
276.00,0.000125
275.50,0.000123
275.00,0.000110
274.50,0.000198
274.00,0.000151
273.50,0.000043
273.00,0.000107
272.50,0.000151
272.00,0.000277
271.50,0.000005
271.00,0.000137
270.50,-0.000063
270.00,0.000255
269.50,0.000288
269.00,-0.000071
268.50,-0.000015
268.00,0.000048
267.50,0.000131
267.00,0.000143
266.50,0.000269
266.00,0.000472
265.50,0.000069
265.00,0.000025
264.50,0.000209
264.00,0.000082
263.50,0.000346
263.00,0.000420
262.50,0.000370
262.00,0.000156
261.50,0.000222
261.00,0.000384
260.50,0.000283
260.00,0.000446
259.50,0.000224
259.00,0.000281
258.50,0.000316
258.00,0.000485
257.50,0.000443
257.00,0.000071
256.50,0.000343
256.00,0.000298
255.50,0.000326
255.00,0.000244
254.50,0.000337
254.00,0.000369
253.50,0.000231
253.00,0.000443
252.50,0.000179
252.00,0.000330
251.50,0.000310
251.00,0.000250
250.50,0.000466
250.00,0.000553
249.50,0.000293
249.00,0.000684
248.50,0.000597
248.00,0.000498
247.50,0.000549
247.00,0.000568
246.50,0.000428
246.00,0.000430
245.50,0.000406
245.00,0.000663
244.50,0.000799
244.00,0.001041
243.50,0.000755
243.00,0.000792
242.50,0.000823
242.00,0.001039
241.50,0.001012
241.00,0.000905
240.50,0.000765
240.00,0.000810


DI water2
8/19/2016 12:30:59 PM
Wavelength (nm),Absorbance
600.00,0.000139
599.50,-0.000004
599.00,0.000362
598.50,0.000500
598.00,0.000088
597.50,-0.000042
597.00,0.000287
596.50,0.000450
596.00,0.000199
595.50,0.000127
595.00,0.000530
594.50,0.000126
594.00,0.000264
593.50,0.000441
593.00,-0.000278
592.50,-0.000067
592.00,0.000157
591.50,-0.000019
591.00,0.000661
590.50,-0.000210
590.00,0.000306
589.50,-0.000193
589.00,0.000036
588.50,0.000034
588.00,-0.000066
587.50,-0.000104
587.00,-0.000047
586.50,0.000464
586.00,0.000190
585.50,0.000595
585.00,0.000118
584.50,-0.000041
584.00,-0.000186
583.50,0.000157
583.00,-0.000437
582.50,0.000181
582.00,-0.000181
581.50,-0.000158
581.00,-0.000280
580.50,-0.000267
580.00,0.000072
579.50,0.000116
579.00,0.000362
578.50,-0.000307
578.00,0.000171
577.50,0.000205
577.00,-0.000312
576.50,-0.000098
576.00,0.000335
575.50,0.000226
575.00,-0.000221
574.50,-0.000373
574.00,0.000689
573.50,0.000001
573.00,0.000246
572.50,-0.000117
572.00,0.000154
571.50,0.000226
571.00,0.000070
570.50,0.000093
570.00,0.000083
569.50,0.000242
569.00,0.000185
568.50,0.000310
568.00,0.000091
567.50,0.000154
567.00,-0.000336
566.50,0.000117
566.00,0.000234
565.50,0.000166
565.00,0.000196
564.50,0.000001
564.00,-0.000610
563.50,-0.000055
563.00,0.000396
562.50,0.000339
562.00,-0.000642
561.50,-0.000346
561.00,0.000061
560.50,0.000270
560.00,0.000436
559.50,0.000017
559.00,0.000249
558.50,-0.000177
558.00,-0.000003
557.50,0.000284
557.00,-0.000148
556.50,0.000226
556.00,0.000013
555.50,0.000191
555.00,0.000074
554.50,0.000138
554.00,0.000102
553.50,-0.000076
553.00,-0.000122
552.50,0.000038
552.00,0.000614
551.50,0.000027
551.00,0.000278
550.50,-0.000178
550.00,-0.000174
549.50,0.000243
549.00,0.000158
548.50,0.000248
548.00,-0.000085
547.50,-0.000083
547.00,0.000257
546.50,0.000017
546.00,-0.000113
545.50,0.000197
545.00,0.000399
544.50,-0.000139
544.00,-0.000194
543.50,0.000012
543.00,0.000173
542.50,0.000171
542.00,0.000012
541.50,-0.000014
541.00,-0.000013
540.50,-0.000073
540.00,-0.000162
539.50,0.000138
539.00,-0.000094
538.50,-0.000115
538.00,0.000044
537.50,0.000102
537.00,0.000097
536.50,-0.000003
536.00,0.000081
535.50,-0.000042
535.00,0.000167
534.50,0.000047
534.00,0.000065
533.50,0.000076
533.00,0.000168
532.50,0.000133
532.00,-0.000138
531.50,-0.000020
531.00,-0.000111
530.50,0.000036
530.00,0.000029
529.50,-0.000032
529.00,0.000005
528.50,-0.000045
528.00,-0.000028
527.50,0.000035
527.00,0.000170
526.50,0.000037
526.00,0.000194
525.50,0.000032
525.00,0.000090
524.50,0.000054
524.00,0.000242
523.50,0.000292
523.00,-0.000062
522.50,-0.000115
522.00,0.000015
521.50,0.000198
521.00,-0.000334
520.50,0.000044
520.00,0.000173
519.50,0.000015
519.00,-0.000107
518.50,0.000093
518.00,0.000080
517.50,0.000280
517.00,-0.000231
516.50,0.000455
516.00,-0.000153
515.50,-0.000258
515.00,-0.000386
514.50,0.000050
514.00,0.000422
513.50,0.000076
513.00,-0.000063
512.50,-0.000051
512.00,0.000085
511.50,0.000104
511.00,0.000401
510.50,-0.000126
510.00,-0.000023
509.50,0.000040
509.00,0.000170
508.50,-0.000026
508.00,0.000187
507.50,-0.000157
507.00,-0.000010
506.50,-0.000285
506.00,-0.000017
505.50,0.000189
505.00,0.000303
504.50,-0.000040
504.00,0.000221
503.50,0.000008
503.00,-0.000005
502.50,-0.000236
502.00,0.000066
501.50,0.000013
501.00,0.000240
500.50,0.000151
500.00,0.000263
499.50,-0.000056
499.00,-0.000280
498.50,-0.000075
498.00,-0.000077
497.50,0.000019
497.00,-0.000144
496.50,-0.000131
496.00,0.000100
495.50,0.000301
495.00,0.000006
494.50,-0.000146
494.00,0.000116
493.50,-0.000044
493.00,0.000075
492.50,-0.000036
492.00,-0.000069
491.50,0.000051
491.00,-0.000066
490.50,0.000083
490.00,0.000098
489.50,0.000044
489.00,0.000050
488.50,-0.000022
488.00,0.000017
487.50,-0.000031
487.00,-0.000037
486.50,0.000051
486.00,-0.000019
485.50,0.000062
485.00,-0.000044
484.50,-0.000136
484.00,-0.000065
483.50,0.000024
483.00,0.000136
482.50,0.000021
482.00,0.000175
481.50,-0.000220
481.00,-0.000010
480.50,-0.000193
480.00,-0.000046
479.50,-0.000006
479.00,0.000143
478.50,0.000174
478.00,0.000048
477.50,0.000078
477.00,0.000080
476.50,0.000333
476.00,0.000004
475.50,-0.000080
475.00,0.000119
474.50,-0.000070
474.00,-0.000070
473.50,0.000001
473.00,0.000158
472.50,0.000167
472.00,-0.000019
471.50,0.000177
471.00,0.000420
470.50,-0.000026
470.00,-0.000156
469.50,0.000031
469.00,-0.000015
468.50,-0.000138
468.00,0.000213
467.50,0.000022
467.00,-0.000062
466.50,0.000027
466.00,0.000047
465.50,0.000086
465.00,0.000059
464.50,0.000163
464.00,-0.000029
463.50,-0.000047
463.00,-0.000050
462.50,0.000116
462.00,-0.000234
461.50,-0.000067
461.00,-0.000043
460.50,-0.000102
460.00,-0.000046
459.50,-0.000131
459.00,0.000085
458.50,-0.000052
458.00,-0.000326
457.50,-0.000125
457.00,-0.000242
456.50,-0.000060
456.00,-0.000171
455.50,-0.000227
455.00,-0.000055
454.50,-0.000096
454.00,-0.000084
453.50,-0.000024
453.00,-0.000145
452.50,-0.000131
452.00,-0.000051
451.50,-0.000087
451.00,0.000098
450.50,0.000121
450.00,0.000014
449.50,-0.000213
449.00,-0.000011
448.50,0.000065
448.00,-0.000304
447.50,0.000120
447.00,0.000084
446.50,-0.000125
446.00,-0.000010
445.50,0.000059
445.00,0.000198
444.50,0.000081
444.00,-0.000036
443.50,0.000077
443.00,-0.000005
442.50,-0.000177
442.00,0.000130
441.50,-0.000090
441.00,0.000016
440.50,-0.000046
440.00,-0.000088
439.50,0.000025
439.00,0.000123
438.50,-0.000013
438.00,-0.000139
437.50,-0.000066
437.00,-0.000042
436.50,-0.000185
436.00,0.000019
435.50,0.000139
435.00,0.000032
434.50,0.000049
434.00,-0.000117
433.50,-0.000134
433.00,0.000012
432.50,0.000008
432.00,0.000112
431.50,-0.000140
431.00,0.000020
430.50,-0.000003
430.00,0.000057
429.50,-0.000013
429.00,-0.000016
428.50,0.000034
428.00,0.000201
427.50,-0.000095
427.00,-0.000154
426.50,0.000145
426.00,0.000004
425.50,-0.000173
425.00,-0.000085
424.50,-0.000013
424.00,-0.000042
423.50,-0.000311
423.00,-0.000111
422.50,-0.000018
422.00,-0.000004
421.50,-0.000063
421.00,-0.000001
420.50,0.000062
420.00,0.000100
419.50,-0.000046
419.00,-0.000052
418.50,0.000153
418.00,-0.000065
417.50,-0.000247
417.00,0.000063
416.50,-0.000186
416.00,0.000030
415.50,-0.000244
415.00,-0.000098
414.50,0.000078
414.00,0.000037
413.50,-0.000103
413.00,-0.000071
412.50,-0.000385
412.00,0.000200
411.50,0.000450
411.00,0.000024
410.50,-0.000047
410.00,0.000155
409.50,-0.000129
409.00,-0.000117
408.50,0.000171
408.00,-0.000488
407.50,0.000159
407.00,0.000129
406.50,-0.000516
406.00,-0.000091
405.50,-0.000316
405.00,-0.000003
404.50,-0.000129
404.00,-0.000232
403.50,0.000013
403.00,0.000002
402.50,0.000197
402.00,0.000278
401.50,0.000224
401.00,0.000099
400.50,-0.000377
400.00,0.000073
399.50,-0.000521
399.00,-0.000230
398.50,-0.000067
398.00,0.000097
397.50,-0.000236
397.00,0.000205
396.50,-0.000085
396.00,-0.000272
395.50,0.000313
395.00,0.000237
394.50,-0.000062
394.00,0.000103
393.50,-0.000093
393.00,-0.000102
392.50,0.000511
392.00,-0.000184
391.50,0.000015
391.00,0.000016
390.50,0.000029
390.00,0.000268
389.50,-0.000064
389.00,-0.000021
388.50,0.000050
388.00,0.000056
387.50,-0.000005
387.00,-0.000404
386.50,-0.000346
386.00,0.000242
385.50,-0.000032
385.00,-0.000289
384.50,-0.000262
384.00,-0.000423
383.50,0.000050
383.00,-0.000039
382.50,-0.000397
382.00,-0.000488
381.50,0.000085
381.00,0.000304
380.50,-0.000376
380.00,-0.000489
379.50,0.000232
379.00,0.000331
378.50,0.000468
378.00,-0.000016
377.50,0.000251
377.00,-0.000045
376.50,0.000468
376.00,-0.000290
375.50,-0.000148
375.00,0.000237
374.50,0.000507
374.00,-0.000033
373.50,0.000467
373.00,0.000240
372.50,-0.000008
372.00,-0.000029
371.50,-0.000282
371.00,-0.000120
370.50,-0.000179
370.00,0.000246
369.50,-0.000457
369.00,0.000180
368.50,0.000246
368.00,-0.000465
367.50,0.000637
367.00,-0.000255
366.50,-0.000272
366.00,-0.000357
365.50,-0.000424
365.00,0.000036
364.50,0.000618
364.00,0.000008
363.50,0.000126
363.00,-0.000352
362.50,-0.000055
362.00,-0.000232
361.50,-0.000231
361.00,-0.000215
360.50,0.000096
360.00,-0.000053
359.50,-0.000127
359.00,0.000338
358.50,0.000396
358.00,0.000514
357.50,-0.000400
357.00,0.000037
356.50,-0.000249
356.00,-0.000265
355.50,-0.000211
355.00,0.000089
354.50,-0.000530
354.00,-0.000026
353.50,-0.000701
353.00,-0.000234
352.50,-0.000130
352.00,-0.000366
351.50,-0.000018
351.00,-0.000016
350.50,0.000181
350.00,-0.000291
349.50,0.000133
349.00,0.000694
348.50,0.001138
348.00,0.000276
347.50,0.000427
347.00,-0.000385
346.50,-0.000255
346.00,-0.000213
345.50,-0.000195
345.00,0.000095
344.50,0.000185
344.00,-0.000577
343.50,0.000258
343.00,-0.000356
342.50,0.000441
342.00,-0.000144
341.50,-0.000153
341.00,-0.000210
340.50,-0.000118
340.00,0.000279
339.50,0.000120
339.00,-0.000596
338.50,-0.000232
338.00,-0.000234
337.50,-0.000507
337.00,-0.000279
336.50,0.000008
336.00,0.000252
335.50,0.000131
335.00,0.000328
334.50,0.000119
334.00,-0.000527
333.50,0.000251
333.00,0.000185
332.50,-0.000356
332.00,-0.000194
331.50,-0.000309
331.00,-0.000091
330.50,0.000343
330.00,0.000018
329.50,0.000097
329.00,0.000186
328.50,0.000189
328.00,0.000015
327.50,0.000032
327.00,-0.000284
326.50,-0.000084
326.00,-0.000160
325.50,-0.000166
325.00,0.000043
324.50,-0.000217
324.00,0.000098
323.50,-0.000161
323.00,0.000035
322.50,0.000086
322.00,0.000115
321.50,0.000072
321.00,-0.000022
320.50,-0.000094
320.00,-0.000010
319.50,-0.000182
319.00,0.000220
318.50,-0.000130
318.00,-0.000090
317.50,0.000010
317.00,-0.000059
316.50,-0.000013
316.00,-0.000259
315.50,-0.000065
315.00,-0.000107
314.50,-0.000093
314.00,0.000056
313.50,-0.000240
313.00,0.000371
312.50,0.000000
312.00,-0.000139
311.50,0.000084
311.00,-0.000057
310.50,-0.000232
310.00,-0.000314
309.50,-0.000098
309.00,-0.000096
308.50,-0.000087
308.00,0.000151
307.50,-0.000077
307.00,0.000012
306.50,-0.000238
306.00,-0.000030
305.50,-0.000188
305.00,-0.000085
304.50,0.000000
304.00,0.000297
303.50,-0.000034
303.00,-0.000252
302.50,-0.000151
302.00,-0.000074
301.50,0.000117
301.00,0.000039
300.50,-0.000218
300.00,-0.000035
299.50,-0.000038
299.00,-0.000009
298.50,0.000009
298.00,-0.000135
297.50,-0.000134
297.00,-0.000057
296.50,-0.000051
296.00,0.000163
295.50,-0.000171
295.00,-0.000131
294.50,-0.000110
294.00,-0.000059
293.50,-0.000118
293.00,0.000163
292.50,0.000321
292.00,-0.000355
291.50,-0.000073
291.00,-0.000272
290.50,-0.000088
290.00,-0.000004
289.50,0.000081
289.00,-0.000227
288.50,0.000014
288.00,-0.000107
287.50,0.000168
287.00,-0.000190
286.50,-0.000066
286.00,0.000066
285.50,-0.000044
285.00,-0.000302
284.50,-0.000107
284.00,-0.000140
283.50,-0.000138
283.00,-0.000313
282.50,-0.000371
282.00,-0.000208
281.50,0.000186
281.00,-0.000119
280.50,-0.000098
280.00,0.000294
279.50,0.000263
279.00,0.000006
278.50,0.000121
278.00,0.000198
277.50,0.000224
277.00,-0.000043
276.50,0.000136
276.00,0.000022
275.50,0.000142
275.00,0.000020
274.50,-0.000149
274.00,0.000029
273.50,-0.000244
273.00,-0.000130
272.50,-0.000009
272.00,-0.000072
271.50,-0.000022
271.00,-0.000196
270.50,-0.000334
270.00,0.000286
269.50,0.000073
269.00,-0.000064
268.50,-0.000004
268.00,-0.000024
267.50,0.000230
267.00,-0.000104
266.50,0.000119
266.00,-0.000060
265.50,-0.000015
265.00,-0.000020
264.50,0.000116
264.00,-0.000161
263.50,-0.000155
263.00,-0.000163
262.50,-0.000033
262.00,-0.000188
261.50,-0.000151
261.00,0.000109
260.50,0.000045
260.00,-0.000186
259.50,0.000013
259.00,0.000046
258.50,-0.000020
258.00,-0.000019
257.50,-0.000219
257.00,0.000061
256.50,-0.000125
256.00,0.000046
255.50,0.000050
255.00,-0.000162
254.50,-0.000052
254.00,-0.000067
253.50,-0.000226
253.00,0.000071
252.50,-0.000165
252.00,0.000082
251.50,-0.000010
251.00,0.000055
250.50,-0.000107
250.00,-0.000092
249.50,-0.000161
249.00,0.000003
248.50,0.000115
248.00,-0.000141
247.50,-0.000070
247.00,-0.000071
246.50,0.000064
246.00,-0.000123
245.50,-0.000024
245.00,0.000040
244.50,-0.000156
244.00,-0.000096
243.50,-0.000069
243.00,-0.000025
242.50,-0.000017
242.00,-0.000051
241.50,-0.000155
241.00,0.000099
240.50,-0.000012
240.00,-0.000080


f
8/19/2016 12:38:37 PM
Wavelength (nm),Absorbance
600.00,-0.031745
599.50,-0.032221
599.00,-0.032398
598.50,-0.031885
598.00,-0.031980
597.50,-0.032530
597.00,-0.032102
596.50,-0.031664
596.00,-0.031748
595.50,-0.031741
595.00,-0.031883
594.50,-0.031999
594.00,-0.031970
593.50,-0.032019
593.00,-0.032047
592.50,-0.032424
592.00,-0.031697
591.50,-0.032009
591.00,-0.031570
590.50,-0.032363
590.00,-0.031931
589.50,-0.032061
589.00,-0.031691
588.50,-0.032137
588.00,-0.031408
587.50,-0.031977
587.00,-0.031693
586.50,-0.031679
586.00,-0.031738
585.50,-0.031584
585.00,-0.031715
584.50,-0.031482
584.00,-0.031717
583.50,-0.031714
583.00,-0.031923
582.50,-0.031589
582.00,-0.031296
581.50,-0.032193
581.00,-0.031806
580.50,-0.031977
580.00,-0.032052
579.50,-0.032661
579.00,-0.032197
578.50,-0.031936
578.00,-0.031716
577.50,-0.032024
577.00,-0.032150
576.50,-0.031958
576.00,-0.031683
575.50,-0.031729
575.00,-0.031563
574.50,-0.032007
574.00,-0.031739
573.50,-0.031775
573.00,-0.031435
572.50,-0.031913
572.00,-0.031531
571.50,-0.031389
571.00,-0.031486
570.50,-0.031518
570.00,-0.031838
569.50,-0.031412
569.00,-0.031796
568.50,-0.031678
568.00,-0.032107
567.50,-0.031647
567.00,-0.031806
566.50,-0.031703
566.00,-0.031970
565.50,-0.031474
565.00,-0.031542
564.50,-0.031567
564.00,-0.031943
563.50,-0.031650
563.00,-0.031100
562.50,-0.031674
562.00,-0.032210
561.50,-0.031682
561.00,-0.031658
560.50,-0.031515
560.00,-0.031319
559.50,-0.031704
559.00,-0.031550
558.50,-0.031628
558.00,-0.031629
557.50,-0.031808
557.00,-0.031843
556.50,-0.031707
556.00,-0.031517
555.50,-0.031642
555.00,-0.031499
554.50,-0.031828
554.00,-0.031731
553.50,-0.032196
553.00,-0.031715
552.50,-0.031542
552.00,-0.031308
551.50,-0.031839
551.00,-0.031236
550.50,-0.031886
550.00,-0.032086
549.50,-0.031673
549.00,-0.032208
548.50,-0.031722
548.00,-0.032320
547.50,-0.031774
547.00,-0.031750
546.50,-0.031774
546.00,-0.031731
545.50,-0.031851
545.00,-0.031689
544.50,-0.031856
544.00,-0.031913
543.50,-0.031642
543.00,-0.031793
542.50,-0.031656
542.00,-0.031998
541.50,-0.031705
541.00,-0.031794
540.50,-0.031845
540.00,-0.031810
539.50,-0.031824
539.00,-0.031837
538.50,-0.031853
538.00,-0.031725
537.50,-0.032073
537.00,-0.032022
536.50,-0.031795
536.00,-0.031622
535.50,-0.031811
535.00,-0.031816
534.50,-0.031893
534.00,-0.031983
533.50,-0.031579
533.00,-0.031610
532.50,-0.031911
532.00,-0.031956
531.50,-0.031785
531.00,-0.032057
530.50,-0.031979
530.00,-0.031915
529.50,-0.032136
529.00,-0.032000
528.50,-0.031877
528.00,-0.031786
527.50,-0.031794
527.00,-0.031958
526.50,-0.031844
526.00,-0.031627
525.50,-0.031788
525.00,-0.031714
524.50,-0.032023
524.00,-0.031836
523.50,-0.031516
523.00,-0.032154
522.50,-0.032060
522.00,-0.031734
521.50,-0.031855
521.00,-0.032037
520.50,-0.031964
520.00,-0.031764
519.50,-0.031959
519.00,-0.031992
518.50,-0.031910
518.00,-0.031604
517.50,-0.031883
517.00,-0.032284
516.50,-0.032016
516.00,-0.032083
515.50,-0.032230
515.00,-0.032186
514.50,-0.032213
514.00,-0.031611
513.50,-0.031809
513.00,-0.032020
512.50,-0.032408
512.00,-0.032229
511.50,-0.031980
511.00,-0.031927
510.50,-0.032090
510.00,-0.032229
509.50,-0.031702
509.00,-0.031721
508.50,-0.031928
508.00,-0.031565
507.50,-0.032092
507.00,-0.031952
506.50,-0.031870
506.00,-0.031691
505.50,-0.031916
505.00,-0.031647
504.50,-0.031813
504.00,-0.031706
503.50,-0.032067
503.00,-0.032339
502.50,-0.032086
502.00,-0.031915
501.50,-0.032108
501.00,-0.032017
500.50,-0.031876
500.00,-0.031888
499.50,-0.032168
499.00,-0.032113
498.50,-0.032155
498.00,-0.031937
497.50,-0.031991
497.00,-0.032172
496.50,-0.032087
496.00,-0.031917
495.50,-0.031844
495.00,-0.031915
494.50,-0.031908
494.00,-0.032017
493.50,-0.032193
493.00,-0.032024
492.50,-0.032223
492.00,-0.032139
491.50,-0.032188
491.00,-0.032045
490.50,-0.031873
490.00,-0.032146
489.50,-0.032044
489.00,-0.032039
488.50,-0.032173
488.00,-0.032061
487.50,-0.032068
487.00,-0.032222
486.50,-0.032145
486.00,-0.032077
485.50,-0.032168
485.00,-0.032180
484.50,-0.032168
484.00,-0.032214
483.50,-0.032043
483.00,-0.032004
482.50,-0.032162
482.00,-0.032076
481.50,-0.032321
481.00,-0.032215
480.50,-0.031981
480.00,-0.032017
479.50,-0.032120
479.00,-0.032051
478.50,-0.031986
478.00,-0.032224
477.50,-0.032110
477.00,-0.032011
476.50,-0.032172
476.00,-0.032075
475.50,-0.032347
475.00,-0.032102
474.50,-0.032399
474.00,-0.032096
473.50,-0.032109
473.00,-0.032358
472.50,-0.032310
472.00,-0.032201
471.50,-0.032089
471.00,-0.031819
470.50,-0.032188
470.00,-0.032255
469.50,-0.032401
469.00,-0.032113
468.50,-0.032144
468.00,-0.032126
467.50,-0.032175
467.00,-0.032317
466.50,-0.032255
466.00,-0.032431
465.50,-0.032343
465.00,-0.032124
464.50,-0.032314
464.00,-0.032284
463.50,-0.032379
463.00,-0.032283
462.50,-0.032156
462.00,-0.032455
461.50,-0.032505
461.00,-0.032378
460.50,-0.032434
460.00,-0.032490
459.50,-0.032276
459.00,-0.032323
458.50,-0.032441
458.00,-0.032453
457.50,-0.032427
457.00,-0.032708
456.50,-0.032256
456.00,-0.032578
455.50,-0.032497
455.00,-0.032412
454.50,-0.032539
454.00,-0.032477
453.50,-0.032559
453.00,-0.032476
452.50,-0.032393
452.00,-0.032626
451.50,-0.032748
451.00,-0.032336
450.50,-0.032386
450.00,-0.032435
449.50,-0.032653
449.00,-0.032508
448.50,-0.032477
448.00,-0.032957
447.50,-0.032351
447.00,-0.032357
446.50,-0.032621
446.00,-0.032444
445.50,-0.032578
445.00,-0.032487
444.50,-0.032464
444.00,-0.032697
443.50,-0.032605
443.00,-0.032683
442.50,-0.032867
442.00,-0.032529
441.50,-0.032695
441.00,-0.032573
440.50,-0.032476
440.00,-0.032661
439.50,-0.032571
439.00,-0.032509
438.50,-0.032696
438.00,-0.032785
437.50,-0.032669
437.00,-0.032735
436.50,-0.032830
436.00,-0.032652
435.50,-0.032607
435.00,-0.032578
434.50,-0.032630
434.00,-0.032853
433.50,-0.032882
433.00,-0.032727
432.50,-0.032628
432.00,-0.032637
431.50,-0.032813
431.00,-0.032695
430.50,-0.032845
430.00,-0.032656
429.50,-0.032726
429.00,-0.032571
428.50,-0.032779
428.00,-0.032632
427.50,-0.032818
427.00,-0.032699
426.50,-0.032781
426.00,-0.032649
425.50,-0.032864
425.00,-0.032947
424.50,-0.032830
424.00,-0.032830
423.50,-0.032871
423.00,-0.032813
422.50,-0.032791
422.00,-0.032700
421.50,-0.032761
421.00,-0.032811
420.50,-0.032693
420.00,-0.032748
419.50,-0.032986
419.00,-0.032909
418.50,-0.032640
418.00,-0.032925
417.50,-0.032924
417.00,-0.032919
416.50,-0.033164
416.00,-0.033049
415.50,-0.033055
415.00,-0.033018
414.50,-0.033049
414.00,-0.033075
413.50,-0.033043
413.00,-0.033120
412.50,-0.032872
412.00,-0.032613
411.50,-0.033136
411.00,-0.032803
410.50,-0.032752
410.00,-0.032712
409.50,-0.033395
409.00,-0.032864
408.50,-0.032977
408.00,-0.033305
407.50,-0.032973
407.00,-0.033131
406.50,-0.033489
406.00,-0.033122
405.50,-0.033188
405.00,-0.032948
404.50,-0.032869
404.00,-0.033529
403.50,-0.033191
403.00,-0.033365
402.50,-0.033063
402.00,-0.032914
401.50,-0.032921
401.00,-0.033004
400.50,-0.033381
400.00,-0.032910
399.50,-0.033555
399.00,-0.033319
398.50,-0.033091
398.00,-0.032962
397.50,-0.033333
397.00,-0.032769
396.50,-0.033279
396.00,-0.033120
395.50,-0.033184
395.00,-0.033006
394.50,-0.033454
394.00,-0.033374
393.50,-0.033290
393.00,-0.033402
392.50,-0.033073
392.00,-0.033514
391.50,-0.033296
391.00,-0.033192
390.50,-0.033319
390.00,-0.033079
389.50,-0.033210
389.00,-0.033226
388.50,-0.033662
388.00,-0.032994
387.50,-0.033367
387.00,-0.033574
386.50,-0.033644
386.00,-0.033172
385.50,-0.033545
385.00,-0.033422
384.50,-0.033369
384.00,-0.033530
383.50,-0.033372
383.00,-0.033629
382.50,-0.033544
382.00,-0.033691
381.50,-0.033203
381.00,-0.033392
380.50,-0.033555
380.00,-0.033854
379.50,-0.033336
379.00,-0.033538
378.50,-0.033125
378.00,-0.033551
377.50,-0.033381
377.00,-0.033617
376.50,-0.033285
376.00,-0.033857
375.50,-0.033402
375.00,-0.033411
374.50,-0.033169
374.00,-0.033555
373.50,-0.033961
373.00,-0.033276
372.50,-0.033322
372.00,-0.033238
371.50,-0.034213
371.00,-0.033808
370.50,-0.033470
370.00,-0.033685
369.50,-0.033960
369.00,-0.033349
368.50,-0.033330
368.00,-0.033462
367.50,-0.033653
367.00,-0.034051
366.50,-0.033760
366.00,-0.033985
365.50,-0.033964
365.00,-0.033767
364.50,-0.033559
364.00,-0.033972
363.50,-0.033811
363.00,-0.034029
362.50,-0.034291
362.00,-0.034211
361.50,-0.034211
361.00,-0.034020
360.50,-0.034131
360.00,-0.034098
359.50,-0.034364
359.00,-0.033921
358.50,-0.033820
358.00,-0.033994
357.50,-0.034373
357.00,-0.033869
356.50,-0.034247
356.00,-0.034493
355.50,-0.034287
355.00,-0.033906
354.50,-0.034431
354.00,-0.034315
353.50,-0.034877
353.00,-0.034583
352.50,-0.034125
352.00,-0.034294
351.50,-0.034285
351.00,-0.034304
350.50,-0.034143
350.00,-0.034550
349.50,-0.034322
349.00,-0.034246
348.50,-0.033742
348.00,-0.034152
347.50,-0.033840
347.00,-0.034677
346.50,-0.034284
346.00,-0.034306
345.50,-0.034643
345.00,-0.034941
344.50,-0.034691
344.00,-0.034655
343.50,-0.034918
343.00,-0.034609
342.50,-0.034390
342.00,-0.034529
341.50,-0.034298
341.00,-0.034808
340.50,-0.034239
340.00,-0.034786
339.50,-0.034249
339.00,-0.034751
338.50,-0.034680
338.00,-0.034913
337.50,-0.035026
337.00,-0.034729
336.50,-0.034816
336.00,-0.034563
335.50,-0.034774
335.00,-0.034951
334.50,-0.035453
334.00,-0.035332
333.50,-0.034746
333.00,-0.035138
332.50,-0.034955
332.00,-0.035041
331.50,-0.034697
331.00,-0.034774
330.50,-0.034834
330.00,-0.034973
329.50,-0.035195
329.00,-0.035292
328.50,-0.035288
328.00,-0.035322
327.50,-0.035239
327.00,-0.035458
326.50,-0.035613
326.00,-0.035483
325.50,-0.035543
325.00,-0.035611
324.50,-0.035505
324.00,-0.035646
323.50,-0.035540
323.00,-0.035573
322.50,-0.035500
322.00,-0.035521
321.50,-0.035513
321.00,-0.035522
320.50,-0.035642
320.00,-0.035546
319.50,-0.035642
319.00,-0.035675
318.50,-0.036072
318.00,-0.035783
317.50,-0.035857
317.00,-0.035924
316.50,-0.035829
316.00,-0.035841
315.50,-0.035753
315.00,-0.035998
314.50,-0.035994
314.00,-0.035930
313.50,-0.036214
313.00,-0.036001
312.50,-0.035918
312.00,-0.036154
311.50,-0.036013
311.00,-0.036135
310.50,-0.036157
310.00,-0.036563
309.50,-0.036256
309.00,-0.036177
308.50,-0.036292
308.00,-0.036206
307.50,-0.036353
307.00,-0.036212
306.50,-0.036416
306.00,-0.036387
305.50,-0.036626
305.00,-0.036307
304.50,-0.036489
304.00,-0.036312
303.50,-0.036457
303.00,-0.036588
302.50,-0.036692
302.00,-0.036482
301.50,-0.036419
301.00,-0.036374
300.50,-0.036850
300.00,-0.036666
299.50,-0.036702
299.00,-0.036751
298.50,-0.036602
298.00,-0.036715
297.50,-0.036889
297.00,-0.036973
296.50,-0.036697
296.00,-0.036942
295.50,-0.036945
295.00,-0.036879
294.50,-0.036990
294.00,-0.037284
293.50,-0.037141
293.00,-0.036806
292.50,-0.036850
292.00,-0.037250
291.50,-0.036873
291.00,-0.037445
290.50,-0.037234
290.00,-0.037325
289.50,-0.037204
289.00,-0.037342
288.50,-0.037275
288.00,-0.037198
287.50,-0.037028
287.00,-0.037677
286.50,-0.037434
286.00,-0.037108
285.50,-0.037532
285.00,-0.037536
284.50,-0.037904
284.00,-0.037504
283.50,-0.037465
283.00,-0.037471
282.50,-0.037873
282.00,-0.037835
281.50,-0.037654
281.00,-0.037826
280.50,-0.037729
280.00,-0.037805
279.50,-0.037693
279.00,-0.037867
278.50,-0.037745
278.00,-0.037957
277.50,-0.037829
277.00,-0.038065
276.50,-0.037593
276.00,-0.037780
275.50,-0.038048
275.00,-0.038063
274.50,-0.038021
274.00,-0.038099
273.50,-0.038356
273.00,-0.038341
272.50,-0.038355
272.00,-0.038547
271.50,-0.038743
271.00,-0.038614
270.50,-0.038495
270.00,-0.038397
269.50,-0.038597
269.00,-0.038651
268.50,-0.038620
268.00,-0.038535
267.50,-0.038397
267.00,-0.038698
266.50,-0.038954
266.00,-0.038820
265.50,-0.038794
265.00,-0.038908
264.50,-0.038791
264.00,-0.038918
263.50,-0.039316
263.00,-0.039338
262.50,-0.039106
262.00,-0.039124
261.50,-0.039197
261.00,-0.039062
260.50,-0.039265
260.00,-0.039350
259.50,-0.039331
259.00,-0.039238
258.50,-0.039527
258.00,-0.039571
257.50,-0.039726
257.00,-0.039754
256.50,-0.039734
256.00,-0.039715
255.50,-0.039950
255.00,-0.040083
254.50,-0.040228
254.00,-0.039993
253.50,-0.040374
253.00,-0.040124
252.50,-0.040325
252.00,-0.040371
251.50,-0.040283
251.00,-0.040452
250.50,-0.040315
250.00,-0.040692
249.50,-0.040542
249.00,-0.040864
248.50,-0.040785
248.00,-0.040936
247.50,-0.040932
247.00,-0.041038
246.50,-0.040948
246.00,-0.041223
245.50,-0.041203
245.00,-0.041272
244.50,-0.041472
244.00,-0.041457
243.50,-0.041634
243.00,-0.041678
242.50,-0.041799
242.00,-0.041980
241.50,-0.041986
241.00,-0.041936
240.50,-0.042073
240.00,-0.042347


f2
8/19/2016 12:40:11 PM
Wavelength (nm),Absorbance
600.00,0.002050
599.50,0.001619
599.00,0.001940
598.50,0.001512
598.00,0.001774
597.50,0.001420
597.00,0.001769
596.50,0.001476
596.00,0.002091
595.50,0.001543
595.00,0.002109
594.50,0.001923
594.00,0.001842
593.50,0.001848
593.00,0.001585
592.50,0.001819
592.00,0.001801
591.50,0.001599
591.00,0.001825
590.50,0.001161
590.00,0.001924
589.50,0.001700
589.00,0.001729
588.50,0.001694
588.00,0.002064
587.50,0.001589
587.00,0.001454
586.50,0.002190
586.00,0.001942
585.50,0.001759
585.00,0.001964
584.50,0.001845
584.00,0.001772
583.50,0.001652
583.00,0.001647
582.50,0.001495
582.00,0.002145
581.50,0.001615
581.00,0.001277
580.50,0.001444
580.00,0.001436
579.50,0.001547
579.00,0.001642
578.50,0.001822
578.00,0.001864
577.50,0.001916
577.00,0.001632
576.50,0.001799
576.00,0.001969
575.50,0.001839
575.00,0.001676
574.50,0.001779
574.00,0.001506
573.50,0.001860
573.00,0.002066
572.50,0.001366
572.00,0.001946
571.50,0.002234
571.00,0.002029
570.50,0.001927
570.00,0.001761
569.50,0.001779
569.00,0.002044
568.50,0.001841
568.00,0.001822
567.50,0.001972
567.00,0.001601
566.50,0.001649
566.00,0.001346
565.50,0.001773
565.00,0.001758
564.50,0.001608
564.00,0.001998
563.50,0.001809
563.00,0.002002
562.50,0.002055
562.00,0.001657
561.50,0.001824
561.00,0.002003
560.50,0.001690
560.00,0.002072
559.50,0.002015
559.00,0.001679
558.50,0.001897
558.00,0.001925
557.50,0.001916
557.00,0.002064
556.50,0.002027
556.00,0.002421
555.50,0.002106
555.00,0.002179
554.50,0.001772
554.00,0.001715
553.50,0.001874
553.00,0.001666
552.50,0.002296
552.00,0.002208
551.50,0.002082
551.00,0.002034
550.50,0.001931
550.00,0.001965
549.50,0.001895
549.00,0.001524
548.50,0.001787
548.00,0.001586
547.50,0.001883
547.00,0.002004
546.50,0.002294
546.00,0.001860
545.50,0.001746
545.00,0.002010
544.50,0.002055
544.00,0.001783
543.50,0.001953
543.00,0.002052
542.50,0.002009
542.00,0.001807
541.50,0.001982
541.00,0.001884
540.50,0.002138
540.00,0.001849
539.50,0.002043
539.00,0.001743
538.50,0.002118
538.00,0.001965
537.50,0.002082
537.00,0.001962
536.50,0.002050
536.00,0.001947
535.50,0.001941
535.00,0.002110
534.50,0.002005
534.00,0.002095
533.50,0.002261
533.00,0.002243
532.50,0.002222
532.00,0.001992
531.50,0.002167
531.00,0.002166
530.50,0.002081
530.00,0.002030
529.50,0.001957
529.00,0.001991
528.50,0.002122
528.00,0.002207
527.50,0.001954
527.00,0.002051
526.50,0.002197
526.00,0.002324
525.50,0.001992
525.00,0.002325
524.50,0.002216
524.00,0.002133
523.50,0.002321
523.00,0.001890
522.50,0.002291
522.00,0.002222
521.50,0.002205
521.00,0.001857
520.50,0.002165
520.00,0.002177
519.50,0.002208
519.00,0.002319
518.50,0.002029
518.00,0.002198
517.50,0.002224
517.00,0.002121
516.50,0.002137
516.00,0.002058
515.50,0.002037
515.00,0.002097
514.50,0.002232
514.00,0.002563
513.50,0.002357
513.00,0.001955
512.50,0.001986
512.00,0.002091
511.50,0.002483
511.00,0.002418
510.50,0.002344
510.00,0.002383
509.50,0.002387
509.00,0.002269
508.50,0.002159
508.00,0.002589
507.50,0.002070
507.00,0.002453
506.50,0.002055
506.00,0.002144
505.50,0.002164
505.00,0.002457
504.50,0.002314
504.00,0.002531
503.50,0.002475
503.00,0.002196
502.50,0.002342
502.00,0.002513
501.50,0.001864
501.00,0.002365
500.50,0.002464
500.00,0.002545
499.50,0.002600
499.00,0.002024
498.50,0.002255
498.00,0.002400
497.50,0.002181
497.00,0.002223
496.50,0.002348
496.00,0.002271
495.50,0.002381
495.00,0.002408
494.50,0.002278
494.00,0.002504
493.50,0.002356
493.00,0.002443
492.50,0.002240
492.00,0.002293
491.50,0.002336
491.00,0.002368
490.50,0.002494
490.00,0.002386
489.50,0.002450
489.00,0.002372
488.50,0.002354
488.00,0.002518
487.50,0.002354
487.00,0.002476
486.50,0.002295
486.00,0.002390
485.50,0.002407
485.00,0.002238
484.50,0.002349
484.00,0.002326
483.50,0.002551
483.00,0.002426
482.50,0.002343
482.00,0.002528
481.50,0.002240
481.00,0.002382
480.50,0.002425
480.00,0.002336
479.50,0.002253
479.00,0.002575
478.50,0.002693
478.00,0.002531
477.50,0.002416
477.00,0.002548
476.50,0.002703
476.00,0.002475
475.50,0.002426
475.00,0.002759
474.50,0.002423
474.00,0.002600
473.50,0.002482
473.00,0.002542
472.50,0.002414
472.00,0.002601
471.50,0.002785
471.00,0.002860
470.50,0.002535
470.00,0.002510
469.50,0.002497
469.00,0.002669
468.50,0.002542
468.00,0.002605
467.50,0.002802
467.00,0.002673
466.50,0.002590
466.00,0.002742
465.50,0.002659
465.00,0.002693
464.50,0.002588
464.00,0.002534
463.50,0.002745
463.00,0.002637
462.50,0.002823
462.00,0.002557
461.50,0.002590
461.00,0.002510
460.50,0.002555
460.00,0.002682
459.50,0.002755
459.00,0.002684
458.50,0.002533
458.00,0.002429
457.50,0.002616
457.00,0.002578
456.50,0.002677
456.00,0.002674
455.50,0.002604
455.00,0.002692
454.50,0.002677
454.00,0.002573
453.50,0.002680
453.00,0.002637
452.50,0.002897
452.00,0.002582
451.50,0.002610
451.00,0.002613
450.50,0.002655
450.00,0.002684
449.50,0.002692
449.00,0.002620
448.50,0.002926
448.00,0.002477
447.50,0.002859
447.00,0.002893
446.50,0.002666
446.00,0.002717
445.50,0.002850
445.00,0.002805
444.50,0.002860
444.00,0.002703
443.50,0.002773
443.00,0.002765
442.50,0.002654
442.00,0.003063
441.50,0.002718
441.00,0.002835
440.50,0.002827
440.00,0.002694
439.50,0.002773
439.00,0.002778
438.50,0.002824
438.00,0.002783
437.50,0.002823
437.00,0.002839
436.50,0.002867
436.00,0.003119
435.50,0.003057
435.00,0.003087
434.50,0.002656
434.00,0.002905
433.50,0.002632
433.00,0.002819
432.50,0.002953
432.00,0.002980
431.50,0.002917
431.00,0.002864
430.50,0.002873
430.00,0.003001
429.50,0.003040
429.00,0.002975
428.50,0.003025
428.00,0.003193
427.50,0.003084
427.00,0.002885
426.50,0.003145
426.00,0.003186
425.50,0.003054
425.00,0.003044
424.50,0.003033
424.00,0.003157
423.50,0.003060
423.00,0.003121
422.50,0.003092
422.00,0.003352
421.50,0.003034
421.00,0.003060
420.50,0.003343
420.00,0.003192
419.50,0.003121
419.00,0.003238
418.50,0.003559
418.00,0.003157
417.50,0.003161
417.00,0.003279
416.50,0.003029
416.00,0.003452
415.50,0.003264
415.00,0.003172
414.50,0.003168
414.00,0.003307
413.50,0.003214
413.00,0.003025
412.50,0.003280
412.00,0.003550
411.50,0.003430
411.00,0.003499
410.50,0.003612
410.00,0.003565
409.50,0.003371
409.00,0.003292
408.50,0.003474
408.00,0.003417
407.50,0.003507
407.00,0.003505
406.50,0.003300
406.00,0.003483
405.50,0.003298
405.00,0.003553
404.50,0.003323
404.00,0.003345
403.50,0.003623
403.00,0.003271
402.50,0.003807
402.00,0.004098
401.50,0.003654
401.00,0.003594
400.50,0.003682
400.00,0.003746
399.50,0.003091
399.00,0.003572
398.50,0.003802
398.00,0.003656
397.50,0.003793
397.00,0.003877
396.50,0.003667
396.00,0.003762
395.50,0.004151
395.00,0.003787
394.50,0.003785
394.00,0.004030
393.50,0.003743
393.00,0.004086
392.50,0.004198
392.00,0.004013
391.50,0.003947
391.00,0.004139
390.50,0.004068
390.00,0.004637
389.50,0.003940
389.00,0.004054
388.50,0.003830
388.00,0.004136
387.50,0.004417
387.00,0.004087
386.50,0.003951
386.00,0.004618
385.50,0.004074
385.00,0.004118
384.50,0.004730
384.00,0.003968
383.50,0.004323
383.00,0.004127
382.50,0.004461
382.00,0.004344
381.50,0.004374
381.00,0.004448
380.50,0.004318
380.00,0.004303
379.50,0.004665
379.00,0.004560
378.50,0.004717
378.00,0.004314
377.50,0.004852
377.00,0.004693
376.50,0.005007
376.00,0.004463
375.50,0.004463
375.00,0.004979
374.50,0.004687
374.00,0.004533
373.50,0.005366
373.00,0.005076
372.50,0.005049
372.00,0.005000
371.50,0.004465
371.00,0.005320
370.50,0.005031
370.00,0.005039
369.50,0.005078
369.00,0.005343
368.50,0.005156
368.00,0.005128
367.50,0.005226
367.00,0.004645
366.50,0.004674
366.00,0.004769
365.50,0.004575
365.00,0.005069
364.50,0.005265
364.00,0.005481
363.50,0.005518
363.00,0.004972
362.50,0.004721
362.00,0.004960
361.50,0.005474
361.00,0.005275
360.50,0.005286
360.00,0.005410
359.50,0.004902
359.00,0.005781
358.50,0.005696
358.00,0.005888
357.50,0.005362
357.00,0.005700
356.50,0.005548
356.00,0.005416
355.50,0.005664
355.00,0.006092
354.50,0.005342
354.00,0.005574
353.50,0.005136
353.00,0.005633
352.50,0.005554
352.00,0.005929
351.50,0.005761
351.00,0.005941
350.50,0.006178
350.00,0.005487
349.50,0.006063
349.00,0.006555
348.50,0.006891
348.00,0.006106
347.50,0.006186
347.00,0.005843
346.50,0.005924
346.00,0.006442
345.50,0.005999
345.00,0.006013
344.50,0.006583
344.00,0.005952
343.50,0.006576
343.00,0.006484
342.50,0.006346
342.00,0.006687
341.50,0.007165
341.00,0.007166
340.50,0.007320
340.00,0.006213
339.50,0.006864
339.00,0.006809
338.50,0.006421
338.00,0.006797
337.50,0.007508
337.00,0.006829
336.50,0.006868
336.00,0.007040
335.50,0.006905
335.00,0.007296
334.50,0.007291
334.00,0.006767
333.50,0.007673
333.00,0.007851
332.50,0.007674
332.00,0.007381
331.50,0.007240
331.00,0.007619
330.50,0.007898
330.00,0.007596
329.50,0.008017
329.00,0.007617
328.50,0.007882
328.00,0.007915
327.50,0.007699
327.00,0.007904
326.50,0.007751
326.00,0.007956
325.50,0.008268
325.00,0.008190
324.50,0.008263
324.00,0.008330
323.50,0.008453
323.00,0.008776
322.50,0.008683
322.00,0.008841
321.50,0.008761
321.00,0.008723
320.50,0.009099
320.00,0.008885
319.50,0.009063
319.00,0.009255
318.50,0.009319
318.00,0.009326
317.50,0.009347
317.00,0.009231
316.50,0.009496
316.00,0.009550
315.50,0.009805
315.00,0.009649
314.50,0.009833
314.00,0.009920
313.50,0.009804
313.00,0.010291
312.50,0.010282
312.00,0.010131
311.50,0.010677
311.00,0.010513
310.50,0.010703
310.00,0.010257
309.50,0.010849
309.00,0.010703
308.50,0.010866
308.00,0.010998
307.50,0.011234
307.00,0.011338
306.50,0.011200
306.00,0.011335
305.50,0.011416
305.00,0.011985
304.50,0.011889
304.00,0.012077
303.50,0.011980
303.00,0.012071
302.50,0.011949
302.00,0.012652
301.50,0.012608
301.00,0.012764
300.50,0.012770
300.00,0.012923
299.50,0.013084
299.00,0.013324
298.50,0.013318
298.00,0.013400
297.50,0.013503
297.00,0.013643
296.50,0.014085
296.00,0.014059
295.50,0.014150
295.00,0.014357
294.50,0.014629
294.00,0.014623
293.50,0.014786
293.00,0.015095
292.50,0.015267
292.00,0.015205
291.50,0.015541
291.00,0.015588
290.50,0.015977
290.00,0.015880
289.50,0.016284
289.00,0.016094
288.50,0.016432
288.00,0.016643
287.50,0.017161
287.00,0.016984
286.50,0.017299
286.00,0.017413
285.50,0.017612
285.00,0.017799
284.50,0.017740
284.00,0.018214
283.50,0.018355
283.00,0.018495
282.50,0.018625
282.00,0.018629
281.50,0.019276
281.00,0.019302
280.50,0.019544
280.00,0.019878
279.50,0.019900
279.00,0.019943
278.50,0.020350
278.00,0.020246
277.50,0.020521
277.00,0.020622
276.50,0.021023
276.00,0.021462
275.50,0.021166
275.00,0.021706
274.50,0.021797
274.00,0.021931
273.50,0.022151
273.00,0.022312
272.50,0.022390
272.00,0.022527
271.50,0.022627
271.00,0.023101
270.50,0.023128
270.00,0.023396
269.50,0.023474
269.00,0.023634
268.50,0.023698
268.00,0.023855
267.50,0.024509
267.00,0.024206
266.50,0.024593
266.00,0.024664
265.50,0.024634
265.00,0.024947
264.50,0.024920
264.00,0.025185
263.50,0.025048
263.00,0.025467
262.50,0.025837
262.00,0.025858
261.50,0.025739
261.00,0.026252
260.50,0.026390
260.00,0.026300
259.50,0.026560
259.00,0.026822
258.50,0.026689
258.00,0.027156
257.50,0.027131
257.00,0.026926
256.50,0.027273
256.00,0.027641
255.50,0.027693
255.00,0.027777
254.50,0.027734
254.00,0.028007
253.50,0.028044
253.00,0.028249
252.50,0.028567
252.00,0.028632
251.50,0.029004
251.00,0.029076
250.50,0.029326
250.00,0.029287
249.50,0.029652
249.00,0.029555
248.50,0.029966
248.00,0.030075
247.50,0.030172
247.00,0.030540
246.50,0.030863
246.00,0.031049
245.50,0.031372
245.00,0.031522
244.50,0.031576
244.00,0.032027
243.50,0.032313
243.00,0.032531
242.50,0.032926
242.00,0.033096
241.50,0.033412
241.00,0.034029
240.50,0.034357
240.00,0.034801
